 ***x   Q2   Theta   Eprime   Sig_Born   Sig_Rad
  0.149138048       2.14125848       15.0717001       2.93899989       295.591278       355.099915    
  0.151112020       2.16960001       15.1716995       2.93899989       287.787292       344.983185    
  0.153098792       2.19812512       15.2716999       2.93899989       280.207214       335.180725    
  0.155098274       2.22683287       15.3717003       2.93899989       272.842773       325.684570    
  0.157110438       2.25572276       15.4716997       2.93899989       265.686829       316.516022    
  0.159135431       2.28479648       15.5717001       2.93899989       258.732544       307.556396    
  0.161173105       2.31405258       15.6716995       2.93899989       251.972870       298.898376    
  0.163223490       2.34349108       15.7716999       2.93899989       245.401047       290.498138    
  0.165286601       2.37311244       15.8717003       2.93899989       239.011429       282.361633    
  0.167362362       2.40291524       15.9716997       2.93899989       232.797867       274.464783    
  0.169450849       2.43290091       16.0716991       2.93899989       226.754227       266.803314    
  0.171552077       2.46306920       16.1716995       2.93899989       220.875549       259.365906    
  0.173665926       2.49341893       16.2716999       2.93899989       215.156525       252.145706    
  0.175792485       2.52395129       16.3717003       2.93899989       209.591522       245.146103    
  0.177931711       2.55466533       16.4717007       2.93899989       204.176498       238.345352    
  0.180083588       2.58556104       16.5716991       2.93899989       198.906631       231.755524    
  0.182248116       2.61663842       16.6716995       2.93899989       193.776779       225.332016    
  0.184425309       2.64789748       16.7716999       2.93899989       188.783371       219.107224    
  0.186615109       2.67933774       16.8717003       2.93899989       183.922195       213.055695    
  0.188817665       2.71096110       16.9717007       2.93899989       179.188736       207.192276    
  0.191032723       2.74276376       17.0716991       2.93899989       174.579926       201.488998    
  0.193260476       2.77474904       17.1716995       2.93899989       170.091690       196.068359    
  0.195500821       2.80691481       17.2716999       2.93899989       165.720154       190.676590    
  0.197753802       2.83926201       17.3717003       2.93899989       161.462616       185.431839    
  0.200019404       2.87179065       17.4717007       2.93899989       157.318695       180.344955    
  0.202297509       2.90449882       17.5716991       2.93899989       153.282623       175.399689    
  0.204588294       2.93738866       17.6716995       2.93899989       149.351044       170.608307    
  0.206891611       2.97045875       17.7716999       2.93899989       145.520737       165.934845    
  0.209207535       3.00370979       17.8717003       2.93899989       141.788910       161.377457    
  0.211536050       3.03714156       17.9717007       2.93899989       138.153046       156.962601    
  0.213877067       3.07075286       18.0716991       2.93899989       134.610153       152.689499    
  0.216230661       3.10454488       18.1716995       2.93899989       131.157745       148.481781    
  0.218596816       3.13851714       18.2716999       2.93899989       127.793625       144.420425    
  0.220975548       3.17266989       18.3717003       2.93899989       124.514732       140.477646    
  0.223366752       3.20700169       18.4717007       2.93899989       121.319336       136.635635    
  0.225770459       3.24151301       18.5716991       2.93899989       118.205078       132.897675    
  0.228186771       3.27620530       18.6716995       2.93899989       115.169395       129.269913    
  0.230615586       3.31107712       18.7716999       2.93899989       112.210640       125.734657    
  0.233056903       3.34612846       18.8717003       2.93899989       109.326447       122.299713    
  0.235510647       3.38135815       18.9717007       2.93899989       106.514908       118.952431    
  0.237976894       3.41676760       19.0716991       2.93899989       103.774406       115.708122    
  0.240455687       3.45235705       19.1716995       2.93899989       101.102432       112.539726    
  0.242946878       3.48812461       19.2716999       2.93899989       98.4976959       109.459908    
  0.245450586       3.52407169       19.3717003       2.93899989       95.9583282       106.461433    
  0.247966766       3.56019783       19.4717007       2.93899989       93.4823837       103.549660    
  0.250495344       3.59650207       19.5716991       2.93899989       91.0686569       100.716072    
  0.253036410       3.63298535       19.6716995       2.93899989       88.7150803       97.9553299    
  0.255589932       3.66964769       19.7716999       2.93899989       86.4203262       95.2697678    
  0.258155853       3.70648837       19.8717003       2.93899989       84.1829987       92.6578369    
  0.260734200       3.74350715       19.9717007       2.93899989       82.0012054       90.1129913    
  0.263324916       3.78070331       20.0716991       2.93899989       79.8740311       87.6360550    
  0.149489462       2.14490128       15.0717001       2.94400001       295.333344       354.559113    
  0.151468098       2.17329121       15.1716995       2.94400001       287.530548       344.445892    
  0.153459549       2.20186472       15.2716999       2.94400001       279.951599       334.661316    
  0.155463740       2.23062134       15.3717003       2.94400001       272.588074       325.170807    
  0.157480642       2.25956035       15.4716997       2.94400001       265.433350       315.974091    
  0.159510404       2.28868365       15.5717001       2.94400001       258.480194       307.062988    
  0.161552876       2.31798935       15.6716995       2.94400001       251.721436       298.403412    
  0.163608089       2.34747791       15.7716999       2.94400001       245.150818       290.019989    
  0.165676057       2.37714958       15.8717003       2.94400001       238.762421       281.889954    
  0.167756721       2.40700316       15.9716997       2.94400001       232.549805       273.993591    
  0.169850141       2.43703985       16.0716991       2.94400001       226.507385       266.344818    
  0.171956316       2.46725965       16.1716995       2.94400001       220.630005       258.920074    
  0.174075127       2.49766088       16.2716999       2.94400001       214.911926       251.706512    
  0.176206723       2.52824521       16.3717003       2.94400001       209.348282       244.701324    
  0.178350970       2.55901146       16.4717007       2.94400001       203.934540       237.909225    
  0.180507943       2.58995986       16.5716991       2.94400001       198.665695       231.329971    
  0.182677552       2.62108994       16.6716995       2.94400001       193.537216       224.911316    
  0.184859872       2.65240216       16.7716999       2.94400001       188.545212       218.691177    
  0.187054843       2.68389606       16.8717003       2.94400001       183.685120       212.651962    
  0.189262584       2.71557307       16.9717007       2.94400001       178.953094       206.793594    
  0.191482842       2.74742985       17.0716991       2.94400001       174.345764       201.222244    
  0.193715855       2.77946949       17.1716995       2.94400001       169.858658       195.678696    
  0.195961475       2.81169009       17.2716999       2.94400001       165.488678       190.289642    
  0.198219761       2.84409237       17.3717003       2.94400001       161.233292       185.054459    
  0.200490713       2.87667632       17.4717007       2.94400001       157.091217       179.974915    
  0.202774197       2.90944004       17.5716991       2.94400001       153.056793       175.029709    
  0.205070361       2.94238591       17.6716995       2.94400001       149.126831       170.247421    
  0.207379103       2.97551227       17.7716999       2.94400001       145.297943       165.559875    
  0.209700495       3.00881982       17.8717003       2.94400001       141.567795       161.029404    
  0.212034479       3.04230833       17.9717007       2.94400001       137.933578       156.612061    
  0.214381009       3.07597685       18.0716991       2.94400001       134.392227       152.318771    
  0.216740176       3.10982633       18.1716995       2.94400001       130.941620       148.147049    
  0.219111919       3.14385653       18.2716999       2.94400001       127.579002       144.122650    
  0.221496224       3.17806721       18.3717003       2.94400001       124.301872       140.150909    
  0.223893076       3.21245742       18.4717007       2.94400001       121.108269       136.315399    
  0.226302460       3.24702764       18.5716991       2.94400001       117.995583       132.580231    
  0.228724465       3.28177905       18.6716995       2.94400001       114.961723       128.955887    
  0.231158972       3.31671000       18.7716999       2.94400001       112.004814       125.426857    
  0.233606040       3.35182095       18.8717003       2.94400001       109.122246       121.994308    
  0.236065581       3.38711071       18.9717007       2.94400001       106.312576       118.661949    
  0.238537654       3.42258048       19.0716991       2.94400001       103.573784       115.407951    
  0.241022274       3.45823026       19.1716995       2.94400001       100.903633       112.249893    
  0.243519351       3.49405885       19.2716999       2.94400001       98.3007812       109.176704    
  0.246028945       3.53006697       19.3717003       2.94400001       95.7630997       106.183235    
  0.248551056       3.56625462       19.4717007       2.94400001       93.2890701       103.275688    
  0.251085609       3.60262084       19.5716991       2.94400001       90.8772430       100.445984    
  0.253632635       3.63916588       19.6716995       2.94400001       88.5254059       97.6878281    
  0.256192178       3.67589068       19.7716999       2.94400001       86.2325745       95.0077362    
  0.258764148       3.71279407       19.8717003       2.94400001       83.9969788       92.3977127    
  0.261348575       3.74987578       19.9717007       2.94400001       81.8171234       89.8565216    
  0.263945371       3.78713512       20.0716991       2.94400001       79.6918869       87.3856659    
  0.149841323       2.14854407       15.0717001       2.94899988       295.075775       354.019806    
  0.151824623       2.17698216       15.1716995       2.94899988       287.274109       343.921143    
  0.153820753       2.20560431       15.2716999       2.94899988       279.696106       334.142365    
  0.155829653       2.23440957       15.3717003       2.94899988       272.333679       324.697327    
  0.157851338       2.26339793       15.4716997       2.94899988       265.180115       315.472961    
  0.159885868       2.29257059       15.5717001       2.94899988       258.228027       306.564545    
  0.161933139       2.32192612       15.6716995       2.94899988       251.470261       297.916382    
  0.163993195       2.35146475       15.7716999       2.94899988       244.900848       289.541901    
  0.166066036       2.38118696       15.8717003       2.94899988       238.513657       281.412109    
  0.168151587       2.41109109       15.9716997       2.94899988       232.301956       273.575836    
  0.170249924       2.44117880       16.0716991       2.94899988       226.260788       265.879883    
  0.172361061       2.47144985       16.1716995       2.94899988       220.384659       258.479980    
  0.174484879       2.50190282       16.2716999       2.94899988       214.667542       251.262268    
  0.176621467       2.53253913       16.3717003       2.94899988       209.105209       244.265732    
  0.178770781       2.56335759       16.4717007       2.94899988       203.692810       237.495453    
  0.180932805       2.59435844       16.5716991       2.94899988       198.424973       230.897049    
  0.183107540       2.62554145       16.6716995       2.94899988       193.297852       224.495972    
  0.185294986       2.65690684       16.7716999       2.94899988       188.307251       218.282425    
  0.187495127       2.68845415       16.8717003       2.94899988       183.448242       212.249466    
  0.189708054       2.72018504       16.9717007       2.94899988       178.717667       206.396469    
  0.191933542       2.75209594       17.0716991       2.94899988       174.111740       200.827744    
  0.194171831       2.78419018       17.1716995       2.94899988       169.625839       195.291016    
  0.196422741       2.81646538       17.2716999       2.94899988       165.257370       189.904816    
  0.198686332       2.84892273       17.3717003       2.94899988       161.004547       184.679001    
  0.200962633       2.88156199       17.4717007       2.94899988       156.863953       179.605606    
  0.203251481       2.91438150       17.5716991       2.94899988       152.831131       174.666946    
  0.205553055       2.94738317       17.6716995       2.94899988       148.902634       169.887329    
  0.207867235       2.98056579       17.7716999       2.94899988       145.075363       165.206970    
  0.210194096       3.01393008       17.8717003       2.94899988       141.346893       160.680023    
  0.212533578       3.04747534       17.9717007       2.94899988       137.714142       156.294144    
  0.214885637       3.08120108       18.0716991       2.94899988       134.174530       151.978561    
  0.217250332       3.11510801       18.1716995       2.94899988       130.725632       147.812607    
  0.219627663       3.14919615       18.2716999       2.94899988       127.364548       143.765732    
  0.222017586       3.18346477       18.3717003       2.94899988       124.089195       139.825562    
  0.224420071       3.21791339       18.4717007       2.94899988       120.897362       135.994476    
  0.226835117       3.25254226       18.5716991       2.94899988       117.786293       132.266586    
  0.229262814       3.28735256       18.6716995       2.94899988       114.754250       128.646088    
  0.231703088       3.32234311       18.7716999       2.94899988       111.798981       125.122215    
  0.234155908       3.35751367       18.8717003       2.94899988       108.918228       121.693375    
  0.236621231       3.39286327       18.9717007       2.94899988       106.110435       118.366570    
  0.239099115       3.42839313       19.0716991       2.94899988       103.373276       115.118187    
  0.241589591       3.46410370       19.1716995       2.94899988       100.705009       111.962822    
  0.244092554       3.49999309       19.2716999       2.94899988       98.1040421       108.892479    
  0.246608049       3.53606224       19.3717003       2.94899988       95.5680695       105.905449    
  0.249136090       3.57231140       19.4717007       2.94899988       93.0959625       103.001152    
  0.251676619       3.60873938       19.5716991       2.94899988       90.6858215       100.172600    
  0.254229635       3.64534664       19.6716995       2.94899988       88.3359146       97.4212646    
  0.256795198       3.68213367       19.7716999       2.94899988       86.0450211       94.7449341    
  0.259373248       3.71909976       19.8717003       2.94899988       83.8111572       92.1401901    
  0.261963755       3.75624442       19.9717007       2.94899988       81.6332397       89.6017303    
  0.264566660       3.79356718       20.0716991       2.94899988       79.5097656       87.1436920    
  0.150193661       2.15218687       15.0717001       2.95400000       294.818481       353.480347    
  0.152181610       2.18067312       15.1716995       2.95400000       287.017975       343.397461    
  0.154182449       2.20934391       15.2716999       2.95400000       279.440826       333.622040    
  0.156196073       2.23819804       15.3717003       2.95400000       272.079559       324.187042    
  0.158222511       2.26723552       15.4716997       2.95400000       264.927155       314.969055    
  0.160261810       2.29645753       15.5717001       2.95400000       257.975922       306.063934    
  0.162313908       2.32586288       15.6716995       2.95400000       251.219315       297.427094    
  0.164378807       2.35545158       15.7716999       2.95400000       244.651123       289.062927    
  0.166456521       2.38522410       15.8717003       2.95400000       238.264786       280.943176    
  0.168546975       2.41517901       15.9716997       2.95400000       232.054306       273.068817    
  0.170650244       2.44531775       16.0716991       2.95400000       226.014404       265.323181    
  0.172766358       2.47564030       16.1716995       2.95400000       220.139252       258.014832    
  0.174895152       2.50614476       16.2716999       2.95400000       214.423370       250.815582    
  0.177036777       2.53683305       16.3717003       2.95400000       208.862320       243.832367    
  0.179191142       2.56770372       16.4717007       2.95400000       203.450943       237.065079    
  0.181358263       2.59875727       16.5716991       2.95400000       198.184433       230.469650    
  0.183538094       2.62999296       16.6716995       2.95400000       193.058670       224.078568    
  0.185730681       2.66141152       16.7716999       2.95400000       188.069168       217.866547    
  0.187936008       2.69301248       16.8717003       2.95400000       183.211533       211.849197    
  0.190154165       2.72479725       16.9717007       2.95400000       178.482376       205.995728    
  0.192384869       2.75676203       17.0716991       2.95400000       173.877579       200.433258    
  0.194628417       2.78891063       17.1716995       2.95400000       169.393158       194.902145    
  0.196884602       2.82124066       17.2716999       2.95400000       165.026199       189.522781    
  0.199153528       2.85375285       17.3717003       2.95400000       160.775864       184.304443    
  0.201435179       2.88644767       17.4717007       2.95400000       156.636856       179.232590    
  0.203729406       2.91932273       17.5716991       2.95400000       152.605652       174.320007    
  0.206036389       2.95238042       17.6716995       2.95400000       148.678543       169.528305    
  0.208356023       2.98561931       17.7716999       2.95400000       144.852951       164.858307    
  0.210688353       3.01904011       17.8717003       2.95400000       141.126144       160.330597    
  0.213033319       3.05264235       17.9717007       2.95400000       137.494858       155.950882    
  0.215390921       3.08642530       18.0716991       2.95400000       133.956985       151.639374    
  0.217761174       3.12038970       18.1716995       2.95400000       130.509720       147.478836    
  0.220144093       3.15453553       18.2716999       2.95400000       127.150261       143.438507    
  0.222539648       3.18886232       18.3717003       2.95400000       123.876686       139.501892    
  0.224947765       3.22336936       18.4717007       2.95400000       120.686417       135.673889    
  0.227368504       3.25805688       18.5716991       2.95400000       117.577164       131.957565    
  0.229801908       3.29292631       18.6716995       2.95400000       114.546951       128.337585    
  0.232247904       3.32797599       18.7716999       2.95400000       111.593285       124.820496    
  0.234706506       3.36320639       18.8717003       2.95400000       108.714401       121.398888    
  0.237177610       3.39861584       18.9717007       2.95400000       105.908409       118.071899    
